 % time (yr) / surface air temperature (degrees C)
       0.500   22.947928
       1.500   22.950056
       2.500   22.951072
       3.500   22.951710
       4.500   22.952412
       5.500   22.953403
       6.500   22.954752
       7.500   22.956379
       8.500   22.958197
       9.500   22.960160
      10.500   22.962239
      11.500   22.964429
      12.500   22.966702
      13.500   22.968964
      14.500   22.971127
      15.500   22.973214
      16.500   22.975257
      17.500   22.977305
      18.500   22.979494
      19.500   22.982174
      21.500   22.986193
      23.500   22.989334
      25.500   22.992665
      27.500   22.995769
      29.500   22.998743
      31.500   23.002874
      33.500   23.007566
      35.500   23.012575
      37.500   23.017923
      39.500   23.023300
      41.500   23.028223
      43.500   23.032928
      45.500   23.038278
      47.500   23.042830
      49.500   23.046442
      51.500   23.050196
      53.500   23.053683
      55.500   23.057034
      57.500   23.061475
      59.500   23.066423
      61.500   23.071636
      63.500   23.077127
      65.500   23.082686
      67.500   23.087811
      69.500   23.092607
      71.500   23.097539
      73.500   23.102884
      75.500   23.106778
      77.500   23.110567
      79.500   23.114062
      81.500   23.117184
      83.500   23.121602
      85.500   23.126541
      87.500   23.131716
      89.500   23.137148
      91.500   23.142731
      93.500   23.147955
      95.500   23.152772
      97.500   23.157440
      99.500   23.162670
     104.500   23.173044
     109.500   23.182109
     114.500   23.194535
     119.500   23.208050
     124.500   23.219880
     129.500   23.231962
     134.500   23.241698
     139.500   23.251623
     144.500   23.264265
     149.500   23.277343
     154.500   23.288569
     159.500   23.298693
     164.500   23.309642
     169.500   23.321466
     174.500   23.333340
     179.500   23.344281
     184.500   23.354890
     189.500   23.365853
     194.500   23.377233
     199.500   23.388671
     204.500   23.399695
     209.500   23.410453
     214.500   23.421309
     219.500   23.432357
     224.500   23.443419
     229.500   23.454169
     234.500   23.464761
     239.500   23.475638
     244.500   23.486812
     249.500   23.497608
     254.500   23.508266
     259.500   23.518892
     264.500   23.529507
     269.500   23.540117
     274.500   23.550954
     279.500   23.562594
     284.500   23.573546
     289.500   23.584108
     294.500   23.594716
     299.500   23.605574
     304.500   23.616314
     309.500   23.626781
     314.500   23.637277
     319.500   23.647692
     324.500   23.657991
     329.500   23.668243
     334.500   23.678324
     339.500   23.688736
     344.500   23.699275
     349.500   23.709696
     354.500   23.720279
     359.500   23.730737
     364.500   23.741065
     369.500   23.751146
     374.500   23.761483
     379.500   23.772320
     384.500   23.783007
     389.500   23.793675
     394.500   23.804070
     399.500   23.815206
     404.500   23.825869
     409.500   23.836259
     414.500   23.846824
     419.500   23.856829
     424.500   23.866736
     429.500   23.876273
     434.500   23.886404
     439.500   23.896380
     444.500   23.906353
     449.500   23.915823
     454.500   23.925455
     459.500   23.935119
     464.500   23.944722
     469.500   23.954283
     474.500   23.963960
     479.500   23.973694
     484.500   23.983409
     489.500   23.993356
     494.500   24.003091
     499.500   24.012663
     504.500   24.022058
     509.500   24.031345
     514.500   24.040574
     519.500   24.049747
     524.500   24.058903
     529.500   24.068303
     534.500   24.077545
     539.500   24.086673
     544.500   24.095736
     549.500   24.104756
     554.500   24.113918
     559.500   24.122877
     564.500   24.132129
     569.500   24.141171
     574.500   24.150190
     579.500   24.159387
     584.500   24.168476
     589.500   24.177380
     594.500   24.186262
     599.500   24.195105
     604.500   24.203941
     609.500   24.212734
     614.500   24.221484
     619.500   24.230210
     624.500   24.238917
     629.500   24.247800
     634.500   24.256553
     639.500   24.265214
     644.500   24.273850
     649.500   24.282455
     654.500   24.291042
     659.500   24.299598
     664.500   24.308139
     669.500   24.316658
     674.500   24.325157
     679.500   24.333727
     684.500   24.342328
     689.500   24.350911
     694.500   24.359418
     699.500   24.367875
     704.500   24.376309
     709.500   24.384734
     714.500   24.393126
     719.500   24.401494
     724.500   24.409842
     729.500   24.418166
     734.500   24.426469
     739.500   24.434900
     744.500   24.443194
     749.500   24.451449
     754.500   24.459689
     759.500   24.467916
     764.500   24.476134
     769.500   24.484331
     774.500   24.492517
     779.500   24.500705
     784.500   24.508930
     789.500   24.517111
     794.500   24.525281
     799.500   24.533433
     804.500   24.541559
     809.500   24.549664
     814.500   24.557758
     819.500   24.565842
     824.500   24.573913
     829.500   24.581972
     834.500   24.590019
     839.500   24.598053
     844.500   24.606051
     849.500   24.614054
     854.500   24.622057
     859.500   24.630059
     864.500   24.638058
     869.500   24.646058
     874.500   24.654044
     879.500   24.662024
     884.500   24.669987
     889.500   24.677938
     894.500   24.685902
     899.500   24.693843
     904.500   24.701757
     909.500   24.709659
     914.500   24.717546
     919.500   24.725416
     924.500   24.733271
     929.500   24.741113
     934.500   24.748946
     939.500   24.757127
     944.500   24.764896
     949.500   24.772649
     954.500   24.780401
     959.500   24.788157
     964.500   24.795909
     969.500   24.803653
     974.500   24.811382
     979.500   24.819110
     984.500   24.826848
     989.500   24.834560
     994.500   24.842258
     999.500   24.849974
    1019.500   24.880781
    1039.500   24.911322
    1059.500   24.941696
    1079.500   24.971894
    1099.500   25.001924
    1119.500   25.031799
    1139.500   25.061516
    1159.500   25.091422
    1179.500   25.120966
    1199.500   25.150214
    1219.500   25.179349
    1239.500   25.208313
    1259.500   25.237123
    1279.500   25.265912
    1299.500   25.294736
    1319.500   25.322976
    1339.500   25.351120
    1359.500   25.379211
    1379.500   25.407056
    1399.500   25.434759
    1419.500   25.462542
    1439.500   25.490012
    1459.500   25.517358
    1479.500   25.544171
    1499.500   25.571671
    1519.500   25.599272
    1539.500   25.626359
    1559.500   25.653117
    1579.500   25.679684
    1599.500   25.706085
    1619.500   25.732371
    1639.500   25.758583
    1659.500   25.784612
    1679.500   25.810457
    1699.500   25.836160
    1719.500   25.861960
    1739.500   25.887412
    1759.500   25.912696
    1779.500   25.937830
    1799.500   25.962871
    1819.500   25.987684
    1839.500   26.012385
    1859.500   26.037163
    1879.500   26.061501
    1899.500   26.085797
    1919.500   26.110011
    1939.500   26.134122
    1959.500   26.158125
    1979.500   26.182297
    1999.500   26.206072
    2049.500   26.264994
    2099.500   26.323241
    2149.500   26.380846
    2199.500   26.437821
    2249.500   26.493952
    2299.500   26.549688
    2349.500   26.604795
    2399.500   26.659677
    2449.500   26.713387
    2499.500   26.766781
    2549.500   26.819464
    2599.500   26.871631
    2649.500   26.923256
    2699.500   26.974111
    2749.500   27.024825
    2799.500   27.074735
    2849.500   27.124265
    2899.500   27.173270
    2949.500   27.221738
    2999.500   27.269868
    3049.500   27.317426
    3099.500   27.364488
    3149.500   27.411078
    3199.500   27.457187
    3249.500   27.502969
    3299.500   27.548171
    3349.500   27.593002
    3399.500   27.637210
    3449.500   27.681084
    3499.500   27.724593
    3549.500   27.767749
    3599.500   27.810519
    3649.500   27.852920
    3699.500   27.894945
    3749.500   27.936606
    3799.500   27.977911
    3849.500   28.018848
    3899.500   28.059418
    3949.500   28.098634
    3999.500   28.138464
    4049.500   28.178019
    4099.500   28.217342
    4149.500   28.256371
    4199.500   28.295083
    4249.500   28.333479
    4299.500   28.371558
    4349.500   28.409324
    4399.500   28.446789
    4449.500   28.483960
    4499.500   28.520832
    4549.500   28.557415
    4599.500   28.593718
    4649.500   28.629746
    4699.500   28.665488
    4749.500   28.700975
    4799.500   28.736181
    4849.500   28.771129
    4899.500   28.805828
    4949.500   28.840266
    4999.500   28.874450
    5049.500   28.908406
    5099.500   28.942103
    5149.500   28.975496
    5199.500   29.008706
    5249.500   29.041692
    5299.500   29.074453
    5349.500   29.106993
    5399.500   29.139283
    5449.500   29.171373
    5499.500   29.203249
    5549.500   29.234906
    5599.500   29.266352
    5649.500   29.297589
    5699.500   29.328628
    5749.500   29.359462
    5799.500   29.390068
    5849.500   29.418819
    5899.500   29.450424
    5949.500   29.480708
    5999.500   29.510494
    6049.500   29.540334
    6099.500   29.569892
    6149.500   29.599244
    6199.500   29.628376
    6249.500   29.657312
    6299.500   29.686096
    6349.500   29.714711
    6399.500   29.743155
    6449.500   29.771450
    6499.500   29.799581
    6549.500   29.827560
    6599.500   29.855378
    6649.500   29.883011
    6699.500   29.910497
    6749.500   29.937848
    6799.500   29.964879
    6849.500   29.991849
    6899.500   30.018764
    6949.500   30.045546
    6999.500   30.072191
    7049.500   30.098690
    7099.500   30.125046
    7149.500   30.151260
    7199.500   30.177334
    7249.500   30.203271
    7299.500   30.229076
    7349.500   30.254750
    7399.500   30.280177
    7449.500   30.305568
    7499.500   30.330826
    7549.500   30.355963
    7599.500   30.380840
    7649.500   30.405745
    7699.500   30.430545
    7749.500   30.455177
    7799.500   30.479714
    7849.500   30.504129
    7899.500   30.528415
    7949.500   30.552580
    7999.500   30.576622
    8049.500   30.600557
    8099.500   30.624395
    8149.500   30.648131
    8199.500   30.671741
    8249.500   30.695250
    8299.500   30.718653
    8349.500   30.741944
    8399.500   30.765028
    8449.500   30.788114
    8499.500   30.811095
    8549.500   30.833893
    8599.500   30.856374
    8649.500   30.879091
    8699.500   30.901705
    8749.500   30.923841
    8799.500   30.946226
    8849.500   30.968527
    8899.500   30.990785
    8949.500   31.012900
    8999.500   31.034918
    9049.500   31.056841
    9099.500   31.078641
    9149.500   31.100510
    9199.500   31.122263
    9249.500   31.143898
    9299.500   31.165451
    9349.500   31.186901
    9399.500   31.208254
    9449.500   31.229514
    9499.500   31.250696
    9549.500   31.271801
    9599.500   31.292817
    9649.500   31.313745
    9699.500   31.334535
    9749.500   31.355299
    9799.500   31.376034
    9849.500   31.396627
    9899.500   31.417140
    9949.500   31.437434
    9999.500   31.457420
   10199.500   31.433432
   10399.500   31.392160
   10599.500   31.350318
   10799.500   31.308863
   10999.500   31.267779
   11199.500   31.226190
   11399.500   31.185826
   11599.500   31.146351
   11799.500   31.107635
   11999.500   31.068178
   12199.500   31.028328
   12399.500   30.988898
   12599.500   30.950402
   12799.500   30.912212
   12999.500   30.873684
   13199.500   30.836113
   13399.500   30.798414
   13599.500   30.761466
   13799.500   30.724184
   13999.500   30.686748
   14199.500   30.649385
   14399.500   30.612100
   14599.500   30.574921
   14799.500   30.537839
   14999.500   30.500940
   15199.500   30.464414
   15399.500   30.428345
   15599.500   30.392748
   15799.500   30.357877
   15999.500   30.331688
   16199.500   30.293553
   16399.500   30.259625
   16599.500   30.226111
   16799.500   30.192903
   16999.500   30.160184
   17199.500   30.127902
   17399.500   30.096074
   17599.500   30.064706
   17799.500   30.033757
   17999.500   30.003255
   18199.500   29.973268
   18399.500   29.943619
   18599.500   29.914364
   18799.500   29.885545
   18999.500   29.857149
   19199.500   29.829176
   19399.500   29.801605
   19599.500   29.774475
   19799.500   29.747756
   19999.500   29.721454
   20499.500   29.657440
   20999.500   29.595854
   21499.500   29.536696
   21999.500   29.479525
   22499.500   29.424681
   22999.500   29.372029
   23499.500   29.321411
   23999.500   29.272790
   24499.500   29.226072
   24999.500   29.181120
   25499.500   29.137915
   25999.500   29.096317
   26499.500   29.056244
   26999.500   29.017515
   27499.500   28.980116
   27999.500   28.944107
   28499.500   28.909373
   28999.500   28.875825
   29499.500   28.843395
   29999.500   28.812063
   30499.500   28.781767
   30999.500   28.752489
   31499.500   28.724147
   31999.500   28.696711
   32499.500   28.670139
   32999.500   28.644335
   33499.500   28.619322
   33999.500   28.594985
   34499.500   28.571312
   34999.500   28.548336
   35499.500   28.525983
   35999.500   28.504221
   36499.500   28.482998
   36999.500   28.462286
   37499.500   28.442046
   37999.500   28.422263
   38499.500   28.402912
   38999.500   28.383968
   39499.500   28.365425
   39999.500   28.347242
   40499.500   28.329416
   40999.500   28.311918
   41499.500   28.294735
   41999.500   28.277851
   42499.500   28.261254
   42999.500   28.244929
   43499.500   28.228864
   43999.500   28.213041
   44499.500   28.197451
   44999.500   28.182077
   45499.500   28.166926
   45999.500   28.151897
   46499.500   28.137084
   46999.500   28.122465
   47499.500   28.108028
   47999.500   28.093787
   48499.500   28.079676
   48999.500   28.065735
   49499.500   28.051933
   49999.500   28.038285
   50499.500   28.024752
   50999.500   28.011345
   51499.500   27.998052
   51999.500   27.984868
   52499.500   27.971994
   52999.500   27.959231
   53499.500   27.946539
   53999.500   27.933877
   54499.500   27.921375
   54999.500   27.908927
   55499.500   27.896550
   55999.500   27.884246
   56499.500   27.872017
   56999.500   27.859842
   57499.500   27.847748
   57999.500   27.835725
   58499.500   27.823748
   58999.500   27.811829
   59499.500   27.799967
   59999.500   27.788181
   60499.500   27.776452
   60999.500   27.764804
   61499.500   27.753157
   61999.500   27.741578
   62499.500   27.730095
   62999.500   27.718679
   63499.500   27.707274
   63999.500   27.695904
   64499.500   27.684575
   64999.500   27.673270
   65499.500   27.661996
   65999.500   27.650753
   66499.500   27.639531
   66999.500   27.628332
   67499.500   27.617154
   67999.500   27.606006
   68499.500   27.594884
   68999.500   27.583763
   69499.500   27.572663
   69999.500   27.561597
   70499.500   27.550563
   70999.500   27.539529
   71499.500   27.528525
   71999.500   27.517564
   72499.500   27.506639
   72999.500   27.495736
   73499.500   27.484860
   73999.500   27.474028
   74499.500   27.463189
   74999.500   27.452351
   75499.500   27.441560
   75999.500   27.430810
   76499.500   27.420080
   76999.500   27.409380
   77499.500   27.398703
   77999.500   27.388048
   78499.500   27.377421
   78999.500   27.366809
   79499.500   27.356222
   79999.500   27.345632
   80499.500   27.335069
   80999.500   27.324537
   81499.500   27.314016
   81999.500   27.303401
   82499.500   27.293010
   82999.500   27.282614
   83499.500   27.272238
   83999.500   27.261890
   84499.500   27.251526
   84999.500   27.241198
   85499.500   27.230887
   85999.500   27.220605
   86499.500   27.210337
   86999.500   27.200090
   87499.500   27.189862
   87999.500   27.179902
   88499.500   27.169534
   88999.500   27.159302
   89499.500   27.149102
   89999.500   27.138927
   90499.500   27.128775
   90999.500   27.118598
   91499.500   27.108439
   91999.500   27.098316
   92499.500   27.088236
   92999.500   27.078158
   93499.500   27.068146
   93999.500   27.058154
   94499.500   27.048185
   94999.500   27.038236
   95499.500   27.028312
   95999.500   27.018407
   96499.500   27.008521
   96999.500   26.998655
   97499.500   26.988809
   97999.500   26.978985
   98499.500   26.969177
   98999.500   26.959403
   99499.500   26.949642
   99999.500   26.939894
  101999.500   26.901089
  103999.500   26.862679
  105999.500   26.824559
  107999.500   26.786849
  109999.500   26.749394
  111999.500   26.712222
  113999.500   26.675355
  115999.500   26.638701
  117999.500   26.602332
  119999.500   26.566352
  121999.500   26.530657
  123999.500   26.495236
  125999.500   26.460141
  127999.500   26.425346
  129999.500   26.390844
  131999.500   26.356612
  133999.500   26.322640
  135999.500   26.288942
  137999.500   26.255582
  139999.500   26.222425
  141999.500   26.189595
  143999.500   26.156996
  145999.500   26.124643
  147999.500   26.092793
  149999.500   26.061195
  151999.500   26.029788
  153999.500   25.998789
  155999.500   25.968127
  157999.500   25.937695
  159999.500   25.907560
  161999.500   25.877793
  163999.500   25.848242
  165999.500   25.818986
  167999.500   25.789979
  169999.500   25.761185
  171999.500   25.732798
  173999.500   25.704557
  175999.500   25.676982
  177999.500   25.649568
  179999.500   25.622375
  181999.500   25.595609
  183999.500   25.569165
  185999.500   25.542967
  187999.500   25.517209
  189999.500   25.493599
  191999.500   25.469965
  193999.500   25.446249
  195999.500   25.422031
  197999.500   25.397600
  199999.500   25.373014
  200000.500   25.373001
